Data from Relative__29__14-45-43-821.txt Node

Date: Thu Jun 26 14:45:43 BST 2025
User: Jamie
Spectrometer: HDX00312
Trigger mode: 0
Integration Time (sec): 1.000000E-1
Scans to average: 1
Nonlinearity correction enabled: true
Boxcar width: 0
Storing dark spectrum: false
XAxis mode: Wavelengths
Number of Pixels in Spectrum: 2068
>>>>>Begin Spectral Data<<<<<
196.211	-31.24919
196.582	-699.98586
196.954	-199.99924
197.325	-1599.9657
197.696	60.00493
198.067	45.29835
198.438	45.42606
198.809	36.25015
199.18	41.22345
199.551	38.93336
199.922	37.85562
200.293	41.73288
200.663	42.3982
201.034	36.7301
201.404	41.51247
201.774	34.09948
202.144	38.42845
202.515	35.98496
202.885	38.06298
203.255	39.55904
203.625	41.8924
203.994	35.12853
204.364	38.25385
204.734	37.50998
205.103	39.51577
205.473	41.15333
205.842	39.95086
206.212	38.30749
206.581	39.63206
206.95	41.03614
207.319	36.1043
207.688	41.36776
208.057	34.14818
208.426	43.21247
208.795	44.97558
209.163	41.70303
209.532	29.92363
209.9	42.51753
210.269	37.96147
210.637	31.80119
211.005	31.29565
211.374	31.9059
211.742	34.76767
212.11	31.3311
212.478	28.41087
212.846	37.36277
213.213	38.78556
213.581	31.10188
213.949	32.2768
214.316	37.03612
214.684	32.39589
215.051	30.92868
215.418	28.8095
215.786	36.09353
216.153	35.74433
216.52	32.21816
216.887	25.99331
217.254	26.90225
217.62	22.06747
217.987	31.81832
218.354	30.86754
218.72	28.95194
219.087	23.98633
219.453	25.75573
219.819	18.52753
220.186	23.05805
220.552	15.65735
220.918	21.94933
221.284	13.23452
221.65	17.28863
222.016	15.64523
222.381	13.07665
222.747	11.36529
223.113	9.12951
223.478	9.39766
223.844	9.73357
224.209	7.40843
224.574	6.55798
224.939	4.57834
225.304	5.92255
225.669	3.03605
226.034	1.84801
226.399	2.10614
226.764	2.19487
227.129	1.15443
227.493	1.92319
227.858	0.5954
228.222	0.06126
228.587	-0.85178
228.951	-1.69479
229.315	-0.77055
229.679	-1.33585
230.043	-1.04748
230.407	-1.69124
230.771	-2.05273
231.135	-2.03753
231.499	-1.68991
231.862	-2.27885
232.226	-2.12216
232.589	-2.14432
232.953	-2.67721
233.316	-3.07797
233.679	-2.45453
234.042	-2.73628
234.405	-2.17118
234.768	-2.76573
235.131	-2.96811
235.494	-3.2311
235.857	-3.3015
236.22	-3.17674
236.582	-3.17573
236.945	-3.54729
237.307	-2.84659
237.669	-3.35173
238.032	-3.09169
238.394	-3.38825
238.756	-3.45455
239.118	-3.43359
239.48	-3.79348
239.842	-3.41094
240.204	-3.66184
240.565	-3.69247
240.927	-3.72289
241.288	-3.98449
241.65	-3.58059
242.011	-3.9382
242.373	-4.45482
242.734	-4.04939
243.095	-3.87643
243.456	-3.614
243.817	-3.83213
244.178	-4.16551
244.539	-3.75531
244.899	-4.0522
245.26	-4.11462
245.621	-4.32192
245.981	-4.26497
246.341	-4.25215
246.702	-4.44408
247.062	-4.2587
247.422	-4.17601
247.782	-4.49659
248.142	-4.46392
248.502	-3.9991
248.862	-4.3034
249.222	-4.15919
249.582	-4.15196
249.941	-4.32392
250.301	-4.5973
250.66	-4.45284
251.02	-4.50863
251.379	-4.85174
251.738	-4.53336
252.097	-4.86122
252.456	-4.38201
252.815	-4.76389
253.174	-4.64702
253.533	-4.94253
253.892	-4.74366
254.25	-4.41696
254.609	-4.73942
254.967	-5.04471
255.326	-5.04092
255.684	-4.65673
256.042	-5.06316
256.4	-5.03396
256.759	-4.76181
257.117	-4.86609
257.474	-5.35931
257.832	-4.93396
258.19	-5.0758
258.548	-5.29146
258.905	-5.51062
259.263	-5.1867
259.62	-5.21275
259.978	-5.58757
260.335	-5.18426
260.692	-5.27871
261.049	-5.28804
261.406	-5.49913
261.763	-5.11656
262.12	-5.5176
262.477	-5.15246
262.834	-5.17036
263.19	-5.21761
263.547	-5.08552
263.904	-5.50729
264.26	-5.17537
264.616	-5.0422
264.973	-5.00928
265.329	-5.17416
265.685	-5.20959
266.041	-4.81638
266.397	-5.17648
266.753	-4.95771
267.108	-5.07657
267.464	-4.98464
267.82	-4.86077
268.175	-4.63243
268.531	-5.0107
268.886	-5.28036
269.241	-5.28586
269.597	-5.18748
269.952	-4.47773
270.307	-4.68646
270.662	-5.00288
271.017	-4.95118
271.371	-4.70655
271.726	-4.89716
272.081	-4.2838
272.435	-4.86084
272.79	-4.70036
273.144	-4.85755
273.499	-4.75984
273.853	-4.64032
274.207	-4.7571
274.561	-4.80464
274.915	-4.60366
275.269	-4.71631
275.623	-4.78953
275.977	-4.89313
276.331	-4.74837
276.684	-4.92564
277.038	-4.74764
277.391	-4.53605
277.745	-4.45531
278.098	-4.33236
278.451	-4.54716
278.804	-4.53864
279.157	-4.47382
279.51	-4.61533
279.863	-4.90609
280.216	-4.66984
280.569	-4.76092
280.922	-4.30965
281.274	-4.70907
281.627	-4.76029
281.979	-4.2462
282.332	-4.29879
282.684	-4.44113
283.036	-4.706
283.388	-4.21733
283.74	-4.31149
284.092	-4.42205
284.444	-4.26739
284.796	-4.42334
285.148	-4.27873
285.499	-4.41186
285.851	-4.15768
286.202	-4.43129
286.554	-4.39297
286.905	-4.44612
287.257	-4.25954
287.608	-4.15299
287.959	-4.28602
288.31	-4.18756
288.661	-4.59142
289.012	-4.11268
289.362	-4.21383
289.713	-4.17408
290.064	-4.44215
290.414	-4.1092
290.765	-4.0372
291.115	-4.05098
291.466	-4.52004
291.816	-4.27652
292.166	-3.75246
292.516	-4.05759
292.866	-3.87226
293.216	-3.8553
293.566	-4.25604
293.916	-3.61373
294.265	-3.91783
294.615	-3.6841
294.964	-3.05037
295.314	-3.59518
295.663	-3.54002
296.013	-3.60757
296.362	-3.213
296.711	-3.18767
297.06	-3.37808
297.409	-2.73355
297.758	-2.97652
298.107	-2.94459
298.455	-2.97682
298.804	-2.53152
299.153	-2.71052
299.501	-2.16417
299.85	-2.38754
300.198	-2.18604
300.546	-2.02982
300.894	-1.97046
301.243	-1.82699
301.591	-1.78218
301.939	-1.59401
302.287	-1.53458
302.634	-1.67086
302.982	-1.26197
303.33	-1.32463
303.677	-1.18181
304.025	-1.36414
304.372	-0.96422
304.72	-0.75322
305.067	-0.94574
305.414	-1.1958
305.761	-1.15489
306.108	-1.02783
306.455	-1.01631
306.802	-1.07996
307.149	-0.75377
307.495	-1.16302
307.842	-0.92906
308.189	-0.99541
308.535	-0.64613
308.882	-0.82686
309.228	-0.67861
309.574	-0.58253
309.92	-0.65478
310.266	-0.7759
310.612	-0.61853
310.958	-0.75755
311.304	-0.64714
311.65	-0.90668
311.996	-0.92173
312.341	-0.57785
312.687	-0.49786
313.032	-0.5803
313.378	-0.56761
313.723	-0.55368
314.068	-0.62955
314.413	-0.76307
314.759	-0.57117
315.104	-0.5693
315.449	-0.46574
315.793	-0.49084
316.138	-0.02364
316.483	-0.40341
316.827	-0.24407
317.172	-0.22514
317.516	-0.07485
317.861	-0.12498
318.205	0
318.549	-0.28956
318.894	-0.3773
319.238	-0.24503
319.582	-0.18665
319.926	-0.3694
320.269	-0.29329
320.613	-0.28618
320.957	-0.26469
321.3	-0.4872
321.644	-0.46558
321.987	-0.27945
322.331	-0.37212
322.674	-0.55309
323.017	-0.37341
323.36	-0.47662
323.704	-0.50021
324.047	-0.82247
324.389	-0.69131
324.732	-0.32363
325.075	-0.57706
325.418	-0.56267
325.76	-0.5673
326.103	-0.71197
326.445	-0.63071
326.788	-0.65499
327.13	-0.4694
327.472	-0.73053
327.814	-0.72953
328.156	-0.85498
328.498	-0.94485
328.84	-0.79382
329.182	-0.62332
329.524	-1.0075
329.866	-1.0999
330.207	-0.95079
330.549	-0.9788
330.89	-0.98784
331.231	-1.16131
331.573	-1.26621
331.914	-1.13417
332.255	-1.19814
332.596	-1.10231
332.937	-1.19919
333.278	-1.37837
333.619	-1.4292
333.96	-1.3513
334.3	-1.75194
334.641	-1.57571
334.981	-1.66482
335.322	-1.47679
335.662	-1.724
336.003	-1.58373
336.343	-1.6666
336.683	-1.75575
337.023	-1.83794
337.363	-1.84011
337.703	-1.52469
338.043	-1.59585
338.382	-1.86966
338.722	-2.01725
339.062	-1.97495
339.401	-1.97816
339.741	-1.60009
340.08	-2.11047
340.419	-1.94545
340.759	-1.92872
341.098	-1.88768
341.437	-1.97134
341.776	-2.38526
342.115	-1.96604
342.454	-2.01186
342.792	-2.0942
343.131	-2.0584
343.47	-2.12095
343.808	-1.98248
344.147	-2.10307
344.485	-2.46217
344.823	-2.04387
345.162	-2.1972
345.5	-1.96935
345.838	-2.27107
346.176	-1.99965
346.514	-2.25296
346.851	-1.91668
347.189	-1.90413
347.527	-2.13328
347.865	-2.06219
348.202	-2.27348
348.54	-2.00414
348.877	-2.22567
349.214	-2.37698
349.551	-1.74517
349.889	-2.09657
350.226	-1.86241
350.563	-2.32464
350.9	-2.33934
351.236	-1.94909
351.573	-2.35217
351.91	-2.45146
352.247	-2.47642
352.583	-2.52466
352.92	-2.36517
353.256	-2.0861
353.592	-2.66569
353.929	-2.37475
354.265	-2.19976
354.601	-2.1581
354.937	-2.16415
355.273	-2.17415
355.609	-2.43341
355.944	-2.4207
356.28	-2.07822
356.616	-2.62291
356.951	-2.7037
357.287	-2.77871
357.622	-2.55204
357.957	-2.42749
358.293	-2.51276
358.628	-2.70021
358.963	-2.48572
359.298	-2.36273
359.633	-2.42562
359.968	-2.46205
360.303	-1.9874
360.637	-2.14464
360.972	-2.1263
361.307	-2.16623
361.641	-2.40628
361.975	-2.51187
362.31	-2.41756
362.644	-2.19147
362.978	-2.39722
363.312	-2.6548
363.646	-2.11197
363.98	-2.03551
364.314	-2.43039
364.648	-2.10379
364.982	-2.6114
365.315	-2.0414
365.649	-2.41205
365.983	-2.38241
366.316	-2.56625
366.649	-2.57007
366.983	-2.22589
367.316	-2.49585
367.649	-2.68895
367.982	-2.57982
368.315	-2.4593
368.648	-2.42412
368.981	-2.01677
369.313	-2.57972
369.646	-1.96629
369.979	-2.50337
370.311	-2.41689
370.644	-2.17273
370.976	-2.32143
371.308	-2.66932
371.641	-2.11336
371.973	-2.61261
372.305	-2.01876
372.637	-2.46153
372.969	-2.26361
373.301	-2.13603
373.632	-2.26432
373.964	-2.37219
374.296	-2.21915
374.627	-2.2688
374.959	-2.25709
375.29	-2.39108
375.621	-2.38222
375.953	-2.55797
376.284	-2.36504
376.615	-2.45381
376.946	-2.38654
377.277	-2.29075
377.608	-2.79882
377.939	-2.37225
378.269	-2.31621
378.6	-2.11238
378.931	-2.20116
379.261	-2.51844
379.591	-2.67034
379.922	-2.44814
380.252	-2.43477
380.582	-2.40744
380.912	-2.54452
381.242	-2.40613
381.572	-2.12186
381.902	-2.30979
382.232	-2.25122
382.562	-2.41507
382.891	-2.50173
383.221	-2.70569
383.551	-2.28336
383.88	-2.22688
384.209	-2.35154
384.539	-2.50167
384.868	-2.5125
385.197	-2.4164
385.526	-2.57542
385.855	-2.35469
386.184	-2.37522
386.513	-2.334
386.842	-2.27606
387.17	-2.26333
387.499	-2.28319
387.828	-2.14378
388.156	-2.77015
388.484	-2.30579
388.813	-2.23488
389.141	-2.21317
389.469	-2.63233
389.797	-2.51782
390.125	-2.59893
390.453	-2.61618
390.781	-2.45785
391.109	-2.46453
391.437	-2.13245
391.764	-2.48802
392.092	-2.38752
392.419	-2.49008
392.747	-2.61455
393.074	-2.53077
393.401	-2.73398
393.729	-2.63138
394.056	-2.76822
394.383	-2.51795
394.71	-2.56323
395.037	-2.45443
395.363	-2.39677
395.69	-2.34997
396.017	-2.30791
396.344	-2.17222
396.67	-2.66604
396.997	-2.40093
397.323	-2.18475
397.649	-2.1843
397.975	-2.35456
398.302	-2.24297
398.628	-2.53378
398.954	-2.53723
399.28	-2.29147
399.606	-2.4144
399.931	-2.32785
400.257	-2.0519
400.583	-2.65589
400.908	-2.35685
401.234	-2.48006
401.559	-2.47238
401.884	-2.71351
402.21	-2.44861
402.535	-2.35121
402.86	-1.90344
403.185	-2.48749
403.51	-2.05008
403.835	-2.17079
404.16	-2.13359
404.485	-2.25341
404.809	-2.29418
405.134	-2.09908
405.458	-2.44718
405.783	-2.29972
406.107	-2.10265
406.432	-2.09914
406.756	-2.1806
407.08	-1.97751
407.404	-2.13455
407.728	-2.19524
408.052	-1.99708
408.376	-1.7964
408.7	-1.93655
409.023	-2.18602
409.347	-2.16635
409.671	-2.19289
409.994	-2.64323
410.317	-2.57398
410.641	-2.05659
410.964	-2.21277
411.287	-2.35507
411.61	-2.2281
411.933	-2.08287
412.256	-1.61178
412.579	-2.07685
412.902	-2.20017
413.225	-2.17462
413.548	-2.2434
413.87	-2.01799
414.193	-1.91431
414.515	-2.16156
414.838	-1.89655
415.16	-1.80424
415.482	-2.40119
415.804	-2.25245
416.126	-1.79891
416.448	-2.38135
416.77	-2.19246
417.092	-2.23293
417.414	-1.77138
417.736	-2.21907
418.057	-2.09159
418.379	-2.21362
418.701	-2.38007
419.022	-2.39202
419.343	-2.24769
419.665	-2.26188
419.986	-1.65904
420.307	-2.02781
420.628	-2.16122
420.949	-1.78114
421.27	-1.79946
421.591	-1.65956
421.912	-2.59579
422.232	-1.51542
422.553	-1.8771
422.873	-1.9206
423.194	-2.1304
423.514	-2.01035
423.835	-1.98097
424.155	-2.04242
424.475	-1.78306
424.795	-2.07937
425.115	-1.64695
425.435	-1.68805
425.755	-1.83428
426.075	-1.33039
426.395	-1.86691
426.714	-1.34223
427.034	-1.47823
427.354	-1.90916
427.673	-1.08056
427.992	-1.35298
428.312	-1.43008
428.631	-1.21793
428.95	-1.15662
429.269	-1.65648
429.588	-1.09442
429.907	-1.41704
430.226	-1.17288
430.545	-1.49293
430.864	-1.75655
431.182	-1.44181
431.501	-1.65195
431.819	-1.21465
432.138	-1.75228
432.456	-1.57309
432.774	-1.50019
433.093	-1.07045
433.411	-1.1311
433.729	-0.98592
434.047	-1.49821
434.365	-1.01232
434.683	-1.1065
435	-0.91811
435.318	-0.96965
435.636	-0.98495
435.953	-0.90652
436.271	-1.26907
436.588	-1.26921
436.906	-1.27451
437.223	-1.21899
437.54	-1.44936
437.857	-1.22135
438.174	-1.31271
438.491	-1.2082
438.808	-1.30921
439.125	-1.33566
439.442	-1.23763
439.758	-1.38335
440.075	-0.70791
440.392	-0.91225
440.708	-1.33403
441.024	-1.45021
441.341	-0.84345
441.657	0
441.973	-1.05491
442.289	-0.77984
442.605	-0.53611
442.921	-0.8406
443.237	-0.84582
443.553	-0.68929
443.869	-1.04844
444.184	-1.51227
444.5	-0.33462
444.816	-1.13101
445.131	-1.10498
445.446	-1.0027
445.762	-0.6546
446.077	-0.72248
446.392	-0.72082
446.707	-0.79491
447.022	-0.63757
447.337	-1.33912
447.652	-0.91584
447.967	-0.84207
448.282	-1.19992
448.596	-0.71721
448.911	-0.09123
449.225	-0.58389
449.54	-0.97823
449.854	-0.32523
450.169	-1.41794
450.483	-0.51333
450.797	-1.00311
451.111	-0.82679
451.425	-0.56827
451.739	-0.35649
452.053	-0.23305
452.367	-0.2311
452.68	-0.60555
452.994	-0.4612
453.308	-1.02339
453.621	-0.722
453.935	-0.7388
454.248	-0.75677
454.561	-0.62426
454.874	-0.64217
455.188	-0.30389
455.501	-1.17713
455.814	-0.14794
456.127	-0.5863
456.44	-0.29009
456.752	-0.85801
457.065	-0.26694
457.378	-0.70364
457.69	-0.58851
458.003	-0.75475
458.315	-0.49254
458.628	-0.35584
458.94	-0.53607
459.252	-0.58893
459.564	-0.43423
459.876	-0.24977
460.188	-0.33246
460.5	-0.06393
460.812	-0.28113
461.124	-0.60273
461.436	0
461.747	-0.28594
462.059	-1.31277
462.37	-0.32017
462.682	-0.83553
462.993	-1.20121
463.304	-0.43058
463.616	-0.53392
463.927	-0.30162
464.238	-0.41936
464.549	-0.48624
464.86	-0.19998
465.171	-0.79934
465.481	-0.2168
465.792	-0.4742
466.103	-0.59485
466.413	-0.26707
466.724	-0.66212
467.034	-0.80086
467.345	-0.44093
467.655	-0.19614
467.965	0.15133
468.275	-0.82467
468.585	-0.8582
468.895	-0.14171
469.205	-0.23958
469.515	-0.10763
469.825	-0.46244
470.135	-0.03283
470.444	-0.46753
470.754	-0.48316
471.063	-0.31627
471.373	-0.15339
471.682	-0.56249
471.991	-0.41182
472.301	-0.42573
472.61	-0.22399
472.919	-0.62737
473.228	-0.15891
473.537	-0.30832
473.846	-0.54647
474.155	-0.6324
474.463	-0.22398
474.772	-0.20789
475.08	-0.32501
475.389	-0.27638
475.697	-0.72912
476.006	-0.2954
476.314	0.06032
476.622	0.06026
476.93	-0.51966
477.239	-0.58107
477.547	-0.36483
477.855	-0.49674
478.162	-0.32168
478.47	-0.17331
478.778	-0.24475
479.086	-0.10081
479.393	-0.74964
479.701	-0.27479
480.008	-0.4788
480.315	-0.35165
480.623	-0.78506
480.93	-0.02071
481.237	-0.63121
481.544	-0.46605
481.851	-0.22743
482.158	0.02743
482.465	-0.07454
482.772	-0.37022
483.079	-0.52479
483.385	-0.35013
483.692	-0.15989
483.998	-0.22705
484.305	-0.78736
484.611	0.04604
484.918	-0.53766
485.224	-0.31374
485.53	-0.2551
485.836	-0.49098
486.142	-0.42359
486.448	-0.42119
486.754	-0.32928
487.06	0.16017
487.366	-0.10265
487.671	-0.52164
487.977	0.0379
488.282	-0.06936
488.588	-0.11351
488.893	0.10638
489.199	0.22571
489.504	0.3552
489.809	-0.38113
490.114	0.04345
490.419	0.11751
490.724	-0.21812
491.029	-0.40234
491.334	0.07386
491.639	0.4134
491.943	0.03048
492.248	0.46459
492.553	0.28392
492.857	-0.31055
493.162	0.26437
493.466	-0.52668
493.77	-0.10111
494.074	0.17962
494.378	-0.04151
494.683	-0.01775
494.987	0.32575
495.29	0.34821
495.594	0.16495
495.898	-0.0468
496.202	0.2157
496.505	0.23274
496.809	-0.24054
497.113	-0.0748
497.416	0.61544
497.719	0.5512
498.023	0.207
498.326	0.21369
498.629	0.43711
498.932	0.51746
499.235	0.36147
499.538	0.6705
499.841	0.24686
500.144	0.28546
500.446	0.49557
500.749	0.49707
501.052	0.40918
501.354	0.10163
501.657	0.94223
501.959	0.78137
502.261	0.42364
502.564	0.72111
502.866	0.02605
503.168	0.63933
503.47	0.41374
503.772	0.67514
504.074	0.87775
504.376	1.10377
504.677	0.68981
504.979	0.5153
505.281	1.23445
505.582	1.19866
505.884	1.18662
506.185	1.11216
506.486	1.01659
506.788	0.98921
507.089	0.95722
507.39	1.26062
507.691	1.27386
507.992	1.12513
508.293	1.30764
508.594	1.3507
508.895	1.50952
509.195	1.46211
509.496	1.71441
509.797	1.94074
510.097	1.60228
510.398	1.764
510.698	1.59362
510.998	2.26316
511.298	1.84717
511.599	2.13351
511.899	2.1239
512.199	2.08211
512.499	2.22355
512.799	2.36164
513.098	2.49005
513.398	2.2244
513.698	2.40942
513.997	2.72903
514.297	2.80272
514.596	2.91498
514.896	3.13606
515.195	3.15393
515.494	2.89537
515.794	3.58339
516.093	3.38385
516.392	3.36437
516.691	3.66939
516.99	3.35598
517.288	3.80927
517.587	3.9063
517.886	4.23066
518.185	4.24394
518.483	4.45457
518.782	4.28522
519.08	4.53545
519.378	4.74954
519.677	4.68094
519.975	4.61811
520.273	4.96029
520.571	5.16139
520.869	5.09086
521.167	5.45183
521.465	5.33993
521.763	5.58616
522.061	5.57431
522.358	5.83585
522.656	6.35526
522.953	6.12174
523.251	6.37432
523.548	6.33798
523.846	6.97633
524.143	6.56454
524.44	6.43135
524.737	7.08365
525.034	6.92606
525.331	6.98547
525.628	7.09758
525.925	7.22785
526.222	7.49066
526.518	7.38994
526.815	7.41784
527.112	8.01917
527.408	7.90202
527.705	8.00603
528.001	8.33193
528.297	8.22951
528.593	7.80415
528.89	8.07103
529.186	7.91024
529.482	8.19027
529.778	8.31852
530.074	8.06793
530.369	8.2406
530.665	8.49257
530.961	8.23238
531.256	8.81803
531.552	8.32543
531.847	8.30989
532.143	8.6
532.438	8.96635
532.733	8.4248
533.029	8.07451
533.324	8.57437
533.619	8.07888
533.914	8.40488
534.209	8.1429
534.504	8.35511
534.798	8.28983
535.093	8.20588
535.388	8.22622
535.682	8.16102
535.977	7.73893
536.271	8.39721
536.566	8.07662
536.86	8.48899
537.154	8.25709
537.448	8.45164
537.742	8.35349
538.037	8.0617
538.33	7.79533
538.624	8.3236
538.918	8.41611
539.212	8.22351
539.506	7.89637
539.799	7.9588
540.093	8.14392
540.386	8.00288
540.68	8.2129
540.973	7.82334
541.266	8.07863
541.56	8.09513
541.853	8.15804
542.146	8.01072
542.439	8.04877
542.732	8.11925
543.025	8.31721
543.318	8.33307
543.61	8.27982
543.903	8.72499
544.196	8.54029
544.488	8.61175
544.781	8.82632
545.073	8.7284
545.365	8.89597
545.658	8.57172
545.95	8.92485
546.242	8.98398
546.534	9.08408
546.826	8.99328
547.118	9.06441
547.41	9.13991
547.702	8.92773
547.993	9.30313
548.285	9.58076
548.577	9.41919
548.868	9.38621
549.16	9.53035
549.451	9.55149
549.742	10.01741
550.034	9.90262
550.325	9.94161
550.616	10.18153
550.907	9.84587
551.198	10.10256
551.489	10.13742
551.78	10.38507
552.07	10.18697
552.361	10.32713
552.652	10.67535
552.942	10.06638
553.233	10.39893
553.523	10.86701
553.814	10.44437
554.104	10.40628
554.394	10.55171
554.684	10.97723
554.975	10.78886
555.265	10.86712
555.555	10.7679
555.845	11.1118
556.134	10.59783
556.424	10.84411
556.714	10.83484
557.003	11.05149
557.293	11.04618
557.583	11.32072
557.872	11.13511
558.161	11.19647
558.451	11.0275
558.74	11.10051
559.029	11.12339
559.318	11.31485
559.607	11.37408
559.896	11.13175
560.185	11.16083
560.474	10.81411
560.763	10.94942
561.051	11.20757
561.34	11.27008
561.629	10.92564
561.917	10.86313
562.205	11.26436
562.494	10.90389
562.782	10.65367
563.07	10.84006
563.359	11.31786
563.647	10.924
563.935	10.85876
564.223	10.70817
564.51	10.9965
564.798	11.0416
565.086	11.1146
565.374	11.00076
565.661	11.09006
565.949	10.68717
566.236	11.06352
566.524	11.07954
566.811	10.66431
567.099	11.03189
567.386	10.80919
567.673	10.79728
567.96	10.61153
568.247	10.77523
568.534	10.65522
568.821	10.64014
569.108	10.46446
569.394	10.55795
569.681	10.52492
569.968	10.6078
570.254	10.36572
570.541	10.5646
570.827	10.49019
571.114	10.22653
571.4	10.22282
571.686	10.23405
571.972	10.56514
572.258	10.31988
572.544	10.43412
572.83	10.20236
573.116	10.31069
573.402	10.20582
573.688	10.24614
573.973	10.31505
574.259	10.2111
574.545	10.45933
574.83	10.17159
575.116	10.20046
575.401	10.14208
575.686	9.90094
575.971	9.84546
576.257	10.08074
576.542	10.10066
576.827	9.86178
577.112	10.01172
577.397	10.06633
577.681	9.90545
577.966	9.59076
578.251	9.79575
578.536	9.62594
578.82	9.69209
579.105	9.81871
579.389	9.73799
579.673	9.80036
579.958	9.43386
580.242	9.57845
580.526	9.73961
580.81	9.23536
581.094	9.48428
581.378	9.67595
581.662	9.7121
581.946	9.43018
582.23	9.49487
582.513	9.49796
582.797	9.36295
583.081	9.49327
583.364	9.55808
583.648	9.28427
583.931	9.47511
584.214	9.42961
584.498	9.19772
584.781	9.4722
585.064	9.08824
585.347	9.15346
585.63	9.0896
585.913	9.05558
586.196	9.05684
586.478	9.12067
586.761	9.11974
587.044	9.36945
587.326	8.73825
587.609	9.00873
587.891	8.91252
588.174	8.93433
588.456	9.01154
588.738	9.20156
589.02	8.7401
589.303	8.85541
589.585	8.62166
589.867	8.69199
590.149	8.84256
590.43	8.56289
590.712	8.69428
590.994	8.45219
591.276	8.62459
591.557	8.5065
591.839	8.39191
592.12	8.15403
592.402	8.31396
592.683	8.61315
592.964	8.08562
593.245	8.19672
593.527	8.24967
593.808	8.60089
594.089	8.21559
594.37	8.27249
594.65	8.30086
594.931	8.02761
595.212	8.06019
595.493	8.02392
595.773	7.79597
596.054	8.03412
596.334	8.14394
596.615	8.11196
596.895	7.77396
597.175	7.72497
597.456	7.83805
597.736	7.81515
598.016	7.69121
598.296	7.55058
598.576	7.36262
598.856	7.61963
599.136	7.64752
599.415	7.32719
599.695	7.52171
599.975	7.44785
600.254	7.13378
600.534	7.60734
600.813	7.39596
601.093	7.28866
601.372	7.17896
601.651	7.06026
601.93	7.07992
602.209	6.87117
602.488	6.95199
602.767	6.76457
603.046	6.97162
603.325	6.90752
603.604	6.67868
603.883	6.44643
604.161	6.25409
604.44	6.55504
604.718	6.70528
604.997	6.60624
605.275	6.32615
605.554	6.43717
605.832	6.25388
606.11	6.26191
606.388	6.40444
606.666	5.93061
606.944	6.07789
607.222	5.97812
607.5	6.08289
607.778	5.82287
608.056	5.48552
608.333	5.83875
608.611	5.80316
608.889	5.59332
609.166	5.78336
609.444	5.48487
609.721	5.55266
609.998	5.46026
610.275	5.51595
610.553	5.55448
610.83	5.33557
611.107	5.23453
611.384	5.21427
611.661	5.08739
611.937	5.46263
612.214	5.34935
612.491	5.10972
612.768	5.17426
613.044	5.26572
613.321	4.96819
613.597	5.08539
613.874	5.08361
614.15	5.00356
614.426	5.13416
614.702	4.86256
614.978	5.21101
615.255	5.01423
615.531	5.04064
615.806	5.16314
616.082	4.83835
616.358	4.76391
616.634	4.83519
616.91	4.88101
617.185	4.7376
617.461	4.81139
617.736	4.8981
618.012	4.78001
618.287	4.56704
618.562	4.81032
618.838	4.98438
619.113	4.88374
619.388	4.7053
619.663	4.81219
619.938	4.92136
620.213	4.77055
620.488	4.77609
620.762	4.80364
621.037	4.64857
621.312	4.95592
621.586	4.8306
621.861	4.85379
622.135	4.72579
622.41	4.99552
622.684	4.87833
622.958	4.66504
623.233	4.96123
623.507	4.91673
623.781	4.81684
624.055	4.72862
624.329	4.79555
624.603	4.73026
624.876	4.81838
625.15	4.91051
625.424	4.93668
625.698	4.8903
625.971	4.78887
626.245	4.98063
626.518	4.8934
626.791	4.85238
627.065	5.09735
627.338	5.0375
627.611	4.97331
627.884	4.92915
628.157	4.92062
628.43	5.09611
628.703	4.72565
628.976	4.93373
629.249	5.01953
629.522	5.10214
629.794	5.09495
630.067	4.8918
630.339	5.07702
630.612	5.23722
630.884	5.14713
631.157	4.98333
631.429	4.766
631.701	4.88235
631.973	4.75371
632.245	5.02993
632.518	4.72048
632.789	4.88148
633.061	4.8746
633.333	5.05947
633.605	4.7083
633.877	4.65243
634.148	4.65456
634.42	4.68157
634.691	4.74836
634.963	4.73189
635.234	4.55514
635.506	4.49756
635.777	4.51189
636.048	4.41179
636.319	4.43744
636.59	4.45543
636.861	4.45103
637.132	4.33861
637.403	4.31802
637.674	4.38719
637.945	3.93939
638.216	4.13345
638.486	3.90014
638.757	4.15777
639.027	3.80886
639.298	3.7551
639.568	3.79084
639.838	3.46577
640.109	3.4983
640.379	3.48812
640.649	3.42085
640.919	3.3387
641.189	3.53162
641.459	3.21567
641.729	2.9604
641.999	3.00532
642.269	3.35004
642.538	3.04332
642.808	3.08725
643.077	3.17696
643.347	2.82479
643.616	2.81977
643.886	2.6059
644.155	2.76197
644.424	2.58507
644.693	2.61094
644.963	2.4032
645.232	2.56273
645.501	2.39217
645.77	2.42143
646.038	2.4528
646.307	2.31205
646.576	2.17902
646.845	2.2631
647.113	2.19197
647.382	2.0245
647.65	2.02569
647.919	1.89785
648.187	2.02483
648.455	1.87763
648.724	1.87924
648.992	1.83865
649.26	1.8381
649.528	1.73316
649.796	1.84824
650.064	1.70728
650.332	1.75467
650.6	1.5276
650.867	1.73389
651.135	1.84531
651.403	1.60706
651.67	1.72738
651.938	1.58287
652.205	1.4679
652.473	1.55999
652.74	1.63612
653.007	1.67022
653.274	1.4457
653.541	1.61211
653.808	1.39497
654.075	1.43338
654.342	1.41703
654.609	1.34297
654.876	1.34352
655.143	1.16776
655.409	1.36106
655.676	1.39967
655.943	1.28988
656.209	1.13655
656.475	1.00499
656.742	1.12387
657.008	1.02761
657.274	0.70539
657.541	1.07544
657.807	1.02838
658.073	1.06078
658.339	0.9832
658.605	0.76827
658.871	0.94101
659.136	0.72414
659.402	0.72941
659.668	0.6033
659.933	0.50106
660.199	0.50594
660.464	0.54467
660.73	0.45891
660.995	0.4228
661.261	0.40602
661.526	0.38737
661.791	0.25479
662.056	0.08349
662.321	0.2262
662.586	0.12244
662.851	0.0817
663.116	0.10371
663.381	0.01872
663.646	0.05437
663.91	0.07314
664.175	-0.06642
664.439	-0.12425
664.704	-0.33211
664.968	-0.29479
665.233	-0.3746
665.497	-0.4139
665.761	-0.26928
666.025	-0.29295
666.29	-0.39355
666.554	-0.43618
666.818	-0.55538
667.082	-0.44321
667.345	-0.38622
667.609	-0.3983
667.873	-0.43763
668.137	-0.74274
668.4	-0.62376
668.664	-0.58429
668.927	-0.42559
669.191	-0.74194
669.454	-0.56756
669.718	-0.70125
669.981	-0.68417
670.244	-0.819
670.507	-0.61519
670.77	-0.85062
671.033	-0.61616
671.296	-0.79394
671.559	-0.85575
671.822	-0.69861
672.085	-0.78796
672.348	-0.7909
672.61	-0.74499
672.873	-0.59473
673.135	-0.61251
673.398	-0.63945
673.66	-0.54701
673.922	-0.79239
674.185	-0.61591
674.447	-0.73754
674.709	-0.75233
674.971	-0.61924
675.233	-0.73798
675.495	-0.51675
675.757	-0.48449
676.019	-0.59024
676.281	-0.53679
676.542	-0.60391
676.804	-0.35941
677.066	-0.55581
677.327	-0.43966
677.589	-0.5686
677.85	-0.30662
678.112	-0.49958
678.373	-0.11745
678.634	-0.28144
678.895	-0.28979
679.156	-0.16709
679.417	-0.21829
679.678	-0.05278
679.939	-0.21473
680.2	-0.02725
680.461	-0.03066
680.722	-0.16701
680.982	-0.0017
681.243	-0.0017
681.504	0.0358
681.764	0.16877
682.025	0.25239
682.285	0.34065
682.545	0.37018
682.806	0.65688
683.066	0.57085
683.326	0.81409
683.586	0.71468
683.846	0.83869
684.106	0.95407
684.366	1.19477
684.626	1.15774
684.885	1.42216
685.145	1.37419
685.405	1.53898
685.664	1.82063
685.924	1.60435
686.183	1.90716
686.443	2.25188
686.702	2.33404
686.961	2.26845
687.221	2.70917
687.48	2.74873
687.739	2.88999
687.998	2.98149
688.257	3.32577
688.516	3.59982
688.775	3.57274
689.033	3.88354
689.292	4.3725
689.551	4.29367
689.809	5.02669
690.068	5.04762
690.326	5.44896
690.585	5.78279
690.843	5.64002
691.102	6.29994
691.36	6.56702
691.618	7.00513
691.876	7.20704
692.134	7.62047
692.392	7.90303
692.65	8.15836
692.908	8.47208
693.166	8.91361
693.424	9.42416
693.681	9.74233
693.939	10.07991
694.197	10.81313
694.454	11.17376
694.712	11.37248
694.969	11.59361
695.226	12.05765
695.484	12.60904
695.741	13.27186
695.998	13.51752
696.255	14.04195
696.512	14.67608
696.769	15.17821
697.026	15.3948
697.283	16.1368
697.54	16.28891
697.796	17.14259
698.053	17.24238
698.31	17.78644
698.566	18.54406
698.823	19.10353
699.079	19.51406
699.336	19.89077
699.592	20.42218
699.848	20.83316
700.104	21.42122
700.361	21.95286
700.617	22.62078
700.873	22.90434
701.129	23.46408
701.384	23.92363
701.64	24.70402
701.896	24.80086
702.152	25.45762
702.407	25.71124
702.663	26.25412
702.919	26.81779
703.174	27.46322
703.43	27.77114
703.685	28.34362
703.94	28.65069
704.195	28.91156
704.451	29.52655
704.706	29.86367
704.961	30.31894
705.216	30.58455
705.471	31.19449
705.726	31.64988
705.98	32.07993
706.235	32.39169
706.49	32.72786
706.745	33.27431
706.999	33.37503
707.254	33.7325
707.508	34.34552
707.762	34.62809
708.017	34.78327
708.271	35.28468
708.525	35.54664
708.779	36.18575
709.034	36.42591
709.288	36.68035
709.542	36.77351
709.796	36.99301
710.049	37.64041
710.303	38.05989
710.557	38.19578
710.811	38.53058
711.064	38.46089
711.318	38.91983
711.571	39.16478
711.825	39.86008
712.078	39.78925
712.331	40.23535
712.585	40.34228
712.838	40.23414
713.091	40.68824
713.344	41.03759
713.597	40.7859
713.85	40.81921
714.103	41.32836
714.356	41.24481
714.609	41.40192
714.862	41.72415
715.114	41.65696
715.367	41.97267
715.619	42.2411
715.872	42.1264
716.124	41.95795
716.377	42.25158
716.629	42.41026
716.881	42.6475
717.133	42.69052
717.386	42.33116
717.638	42.71447
717.89	42.91462
718.142	42.80416
718.394	42.47886
718.645	43.00236
718.897	42.84496
719.149	43.10741
719.401	43.09437
719.652	43.25226
719.904	43.61091
720.155	43.69724
720.407	43.87668
720.658	44.04972
720.909	44.14147
721.161	43.83725
721.412	44.42708
721.663	43.86835
721.914	44.67283
722.165	44.48926
722.416	44.8971
722.667	44.90935
722.918	44.7293
723.169	45.01523
723.419	45.35982
723.67	44.89847
723.921	45.19999
724.171	45.59916
724.422	45.41864
724.672	45.83463
724.922	45.48929
725.173	45.69251
725.423	45.66469
725.673	46.08565
725.923	46.35044
726.173	45.81172
726.423	46.08223
726.673	46.46965
726.923	46.31186
727.173	46.46244
727.423	46.30036
727.673	46.40084
727.922	46.48624
728.172	46.57591
728.421	47.07563
728.671	47.42
728.92	46.90956
729.17	46.53916
729.419	46.75073
729.668	46.79754
729.918	46.96663
730.167	47.01916
730.416	46.65174
730.665	47.33742
730.914	47.10056
731.163	47.16883
731.411	47.45377
731.66	47.6914
731.909	47.46493
732.158	47.62961
732.406	47.70411
732.655	47.54857
732.903	47.41062
733.152	47.57473
733.4	47.73214
733.648	47.47094
733.897	47.26401
734.145	48.10946
734.393	48.03195
734.641	48.20047
734.889	47.65933
735.137	47.77707
735.385	47.87392
735.633	48.07982
735.881	47.77403
736.129	48.26905
736.376	48.33069
736.624	48.37074
736.871	48.50397
737.119	48.15895
737.366	48.29768
737.614	48.50466
737.861	48.70187
738.108	48.23988
738.356	48.13872
738.603	48.4954
738.85	48.44268
739.097	48.71287
739.344	48.58002
739.591	48.25071
739.838	48.63786
740.084	48.92446
740.331	48.56173
740.578	48.87807
740.825	48.54535
741.071	48.63774
741.318	48.72161
741.564	48.60606
741.811	48.93996
742.057	48.82862
742.303	48.96628
742.549	49.12356
742.796	48.7789
743.042	48.85136
743.288	49.18171
743.534	48.91215
743.78	49.28601
744.026	49.02523
744.271	49.5709
744.517	48.92097
744.763	48.84202
745.009	49.01109
745.254	49.43281
745.5	49.30573
745.745	49.21107
745.991	48.83287
746.236	49.06851
746.481	49.13523
746.727	49.12133
746.972	48.91226
747.217	49.25196
747.462	49.46078
747.707	49.35294
747.952	48.92485
748.197	48.99394
748.442	49.2721
748.686	49.20149
748.931	49.06282
749.176	49.06041
749.421	49.23066
749.665	49.20601
749.91	49.14182
750.154	49.04625
750.398	48.89417
750.643	49.72909
750.887	49.13155
751.131	49.3337
751.375	49.65179
751.62	49.50113
751.864	49.21941
752.108	49.5796
752.351	49.08681
752.595	49.45257
752.839	49.19761
753.083	49.13695
753.327	49.37643
753.57	49.29926
753.814	49.39232
754.057	49.62964
754.301	49.30448
754.544	50.1246
754.788	48.90722
755.031	49.16384
755.274	49.54386
755.517	49.57766
755.761	49.35446
756.004	49.26496
756.247	49.18588
756.49	50.04452
756.732	49.04207
756.975	49.44546
757.218	48.89568
757.461	49.27471
757.704	49.31843
757.946	49.12891
758.189	49.16738
758.431	48.95415
758.674	49.76288
758.916	49.54247
759.158	49.52071
759.401	49.47251
759.643	49.3893
759.885	49.28356
760.127	49.29898
760.369	49.58166
760.611	49.43901
760.853	49.76649
761.095	49.19321
761.337	49.28902
761.579	49.42904
761.82	49.21012
762.062	49.31598
762.304	49.54268
762.545	49.50355
762.787	49.3417
763.028	49.45373
763.269	49.18229
763.511	49.6435
763.752	49.86506
763.993	49.40527
764.234	49.02739
764.475	49.6341
764.716	49.7232
764.957	49.35648
765.198	49.66311
765.439	49.43122
765.68	49.15934
765.921	49.63824
766.161	49.36853
766.402	49.27923
766.643	49.57666
766.883	49.29945
767.124	50.08627
767.364	49.50561
767.604	49.32212
767.845	49.47704
768.085	49.28521
768.325	49.5411
768.565	49.78707
768.805	49.68058
769.045	49.84692
769.285	49.32352
769.525	49.47561
769.765	49.49136
770.005	49.36782
770.244	49.43696
770.484	49.72946
770.724	49.03452
770.963	49.43563
771.203	49.72427
771.442	49.15195
771.682	49.73829
771.921	49.47535
772.16	49.59326
772.399	49.65178
772.639	49.23255
772.878	49.57853
773.117	49.66088
773.356	49.31024
773.595	49.65049
773.834	49.05862
774.072	49.20624
774.311	49.26873
774.55	49.09348
774.789	49.2087
775.027	49.28361
775.266	49.69405
775.504	49.35862
775.743	49.57524
775.981	50.06551
776.219	49.30358
776.458	50.02176
776.696	49.71844
776.934	49.43367
777.172	49.39481
777.41	49.21197
777.648	48.99314
777.886	49.37883
778.124	49.12672
778.362	48.91157
778.6	49.51401
778.837	48.90176
779.075	49.50596
779.313	49.3471
779.55	50.08104
779.788	49.12947
780.025	49.30481
780.262	49.15015
780.5	49.50425
780.737	49.36815
780.974	49.21313
781.211	49.38955
781.449	49.32847
781.686	49.75673
781.923	49.29089
782.159	49.43546
782.396	48.97891
782.633	49.01924
782.87	49.24512
783.107	49.3219
783.343	49.58182
783.58	49.4695
783.816	49.76675
784.053	49.6523
784.289	49.57039
784.526	49.52314
784.762	49.52112
784.998	49.82741
785.235	49.29637
785.471	49.56582
785.707	49.16948
785.943	49.25856
786.179	49.41833
786.415	49.39525
786.651	49.02305
786.887	49.42756
787.122	48.6994
787.358	49.35934
787.594	49.43922
787.829	49.35324
788.065	49.39488
788.3	49.33347
788.536	49.53477
788.771	48.91159
789.006	49.33087
789.242	49.15828
789.477	49.33102
789.712	49.02683
789.947	48.85161
790.182	49.4979
790.417	49.08055
790.652	48.69347
790.887	49.54359
791.122	49.30105
791.357	49.23924
791.591	49.22733
791.826	49.21137
792.061	49.19139
792.295	49.39834
792.53	49.42282
792.764	49.56014
792.999	49.66298
793.233	49.72511
793.467	49.47855
793.701	49.39664
793.936	49.51765
794.17	49.48559
794.404	49.33737
794.638	49.20643
794.872	49.57211
795.106	49.29297
795.34	49.26609
795.573	49.65083
795.807	49.39288
796.041	49.45914
796.274	48.90328
796.508	49.91252
796.741	49.06886
796.975	49.34839
797.208	49.79038
797.442	49.27854
797.675	49.33587
797.908	49.03523
798.141	49.31162
798.375	49.32741
798.608	49.18629
798.841	49.28232
799.074	49.49608
799.306	49.52345
799.539	49.47748
799.772	48.86511
800.005	49.00553
800.238	49.3986
800.47	49.28321
800.703	49.64826
800.935	49.82995
801.168	49.61477
801.4	49.05644
801.633	49.78102
801.865	49.00927
802.097	49.1894
802.329	49.30358
802.562	49.06162
802.794	49.62223
803.026	48.92401
803.258	49.61466
803.49	49.59143
803.721	49.99713
803.953	49.07267
804.185	49.04138
804.417	49.41965
804.648	49.78445
804.88	49.35407
805.112	48.90076
805.343	48.75393
805.575	49.2432
805.806	49.30155
806.037	49.19064
806.269	48.71592
806.5	49.67995
806.731	49.01068
806.962	49.54042
807.193	49.31334
807.424	49.35159
807.655	49.41381
807.886	34.66452
808.117	100
808.348	79.16717
808.578	207.13894
